        5.04553       35.19880499        0.93891837
        5.14523       35.30665409        0.89976518
        5.24492       34.18407885        0.87294200
        5.34461       36.20099100        0.82735666
        5.44431       36.50975372        0.90883888
        5.54400       34.37995388        0.73477107
        5.64369       35.32982706        0.74868389
        5.74339       34.78524712        0.66576439
        5.84308       33.77425650        0.66382581
        5.94277       34.45367975        0.66883255
        6.04247       35.18585320        0.65573178
        6.14216       35.07840809        0.60271181
        6.24185       35.03114840        0.62067045
        6.34155       34.53291338        0.58788657
        6.44124       34.89349832        0.62303027
        6.54093       35.42716618        0.59530796
        6.64063       35.02824140        0.56103112
        6.74032       34.58070508        0.55739369
        6.84001       34.83932680        0.55632323
        6.93971       35.42496894        0.56590877
        7.03940       35.10569180        0.52475738
        7.13909       35.31334893        0.52398695
        7.23879       34.56472409        0.51099370
        7.33848       34.08477569        0.51520865
        7.43817       34.77040658        0.50945724
        7.53787       34.16903804        0.49843804
        7.63756       35.12167695        0.48204398
        7.73725       35.18060368        0.50161528
        7.83695       34.74331121        0.48220765
        7.93664       35.36237106        0.50757213
        8.03633       35.23507171        0.45617647
        8.13603       35.83221384        0.45471251
        8.23572       35.39823085        0.46079490
        8.33541       34.20496853        0.44834719
        8.43511       35.50652320        0.48345558
        8.53480       35.57759721        0.44841820
        8.63449       35.83817824        0.44592228
        8.73419       35.94945650        0.43604724
        8.83388       36.25056764        0.44036638
        8.93357       36.35230824        0.44001086
        9.03327       36.43023764        0.42899867
        9.13296       35.81871350        0.42312966
        9.23265       35.48933373        0.42636980
        9.33235       35.52604749        0.43912273
        9.43204       36.20082006        0.44161486
        9.53174       35.44504649        0.41984626
        9.63143       36.35316880        0.43953334
        9.73112       35.47230037        0.43415039
        9.83082       35.31335766        0.45196293
        9.93051       36.11210196        0.45032211
       10.03020       37.23100085        0.44209506
       10.12990       35.87820818        0.42348833
       10.22959       36.42467087        0.44407271
       10.32928       36.25942012        0.46157842
       10.42898       37.01080059        0.46039837
       10.52867       37.18781545        0.44637893
       10.62836       37.49827455        0.44816544
       10.72806       37.36246667        0.45290327
       10.82775       38.10781761        0.45633828
       10.92744       38.39888123        0.46491537
       11.02714       38.63825104        0.44548228
       11.12683       38.35804373        0.45876320
       11.22652       38.38952531        0.46433033
       11.32622       38.68101675        0.47842232
       11.42591       38.61561456        0.46125313
       11.52560       38.58248664        0.45586421
       11.62530       39.13912786        0.46328220
       11.72499       38.48211964        0.46761937
       11.82468       39.57789157        0.48715924
       11.92438       40.01619166        0.46549086
       12.02407       38.72307456        0.45264794
       12.12376       40.55717288        0.46621002
       12.22346       39.53841322        0.48833289
       12.32315       39.56505469        0.49326269
       12.42284       39.47968011        0.46978731
       12.52254       40.60072521        0.47273900
       12.62223       40.87832131        0.48752266
       12.72192       40.96747325        0.47416991
       12.82162       41.24324974        0.51398556
       12.92131       42.00146936        0.47626161
       13.02100       41.31054748        0.46671659
       13.12070       41.98550959        0.47833868
       13.22039       42.83061640        0.49735710
       13.32008       42.90959380        0.51675772
       13.41978       43.27749791        0.49338091
       13.51947       44.00225673        0.50680425
       13.61916       44.59532273        0.49266224
       13.71886       44.36421314        0.51527284
       13.81855       45.08825516        0.52737563
       13.91824       46.14890549        0.50224851
       14.01794       47.02331453        0.49603244
       14.11763       47.24305633        0.51493344
       14.21733       48.39897688        0.52389447
       14.31702       48.98141448        0.55360969
       14.41671       50.01859067        0.54271368
       14.51641       48.99659500        0.52224202
       14.61610       51.14851621        0.53645826
       14.71579       52.84615076        0.55543800
       14.81549       54.05096531        0.58935478
       14.91518       55.76275106        0.54752153
       15.01487       59.27305328        0.57512727
       15.11457       64.01700929        0.60542999
       15.21426       72.45321985        0.66474967
       15.31395       79.10719373        0.71381647
       15.41365       84.37073037        0.71408304
       15.51334      104.68263559        0.77464122
       15.61303      121.95319855        0.86395219
       15.71273      145.73949541        0.93225960
       15.81242      169.43819396        1.05906800
       15.91211      184.34054469        1.06874311
       16.01181      227.21629739        1.15000945
       16.11150      278.24934227        1.32380152
       16.21119      352.36845811        1.55403817
       16.31089      430.92834453        1.74599673
       16.41058      504.86121610        1.87547507
       16.51027      632.81736994        2.18465883
       16.60997      834.82082511        2.50161711
       16.70966     1046.98001188        2.96467226
       16.80935     1189.04068477        3.26369558
       16.90905     1383.37070559        3.50746831
       17.00874     1246.28653164        3.12992593
       17.10843     1004.87998936        2.87688023
       17.20813      783.01171875        2.47137744
       17.30782      600.77929291        2.11773585
       17.40751      412.59816562        1.69663729
       17.50721      306.13729934        1.38806891
       17.60690      222.48939000        1.20310255
       17.70659      168.23010335        1.03989311
       17.80629      125.75804097        0.90201988
       17.90598       97.50335065        0.73886425
       18.00567       78.85835710        0.67389604
       18.10537       70.21168406        0.61753660
       18.20506       65.04532963        0.65042727
       18.30475       59.44867749        0.59246652
       18.40445       57.62133356        0.56736672
       18.50414       56.64427471        0.58085825
       18.60384       53.78084518        0.55662380
       18.70353       52.37757862        0.58093670
       18.80322       51.00122616        0.53917654
       18.90292       49.65391782        0.52653204
       19.00261       48.69027714        0.50545434
       19.10230       46.26975456        0.52488550
       19.20200       46.10265865        0.53614318
       19.30169       46.05854165        0.51665279
       19.40138       46.10026120        0.51216462
       19.50108       44.93298431        0.51703134
       19.60077       43.67870474        0.50455038
       19.70046       43.36319237        0.52685002
       19.80016       42.46945988        0.49363731
       19.89985       42.63677023        0.48016788
       19.99954       42.35018119        0.48329849
       20.09924       42.45556009        0.48984101
       20.19893       41.52221182        0.51777264
       20.29862       41.64958673        0.49121795
       20.39832       41.73019632        0.50742828
       20.49801       40.38967722        0.48954179
       20.59770       39.05066152        0.49104890
       20.69740       38.60769375        0.50552282
       20.79709       38.19982902        0.47881078
       20.89678       38.52171709        0.46871807
       20.99648       38.35263616        0.47533438
       21.09617       37.36443535        0.48974761
       21.19586       36.40336602        0.48308502
       21.29556       36.30503526        0.47141371
       21.39525       36.18329562        0.47132183
       21.49494       36.58210832        0.46566935
       21.59464       35.73111450        0.47013378
       21.69433       36.17559179        0.49259786
       21.79402       35.32457740        0.44430251
       21.89372       35.59878722        0.43699175
       21.99341       35.39471917        0.45418714
       22.09310       35.10652582        0.45423710
       22.19280       34.60901145        0.47824077
       22.29249       34.45235999        0.44525052
       22.39218       34.05304582        0.45234097
       22.49188       34.51163810        0.45596864
       22.59157       33.97061903        0.45818832
       22.69126       34.06233132        0.48215859
       22.79096       34.21076401        0.43659129
       22.89065       34.21996572        0.42665714
       22.99034       34.35688977        0.43929234
       23.09004       34.09962061        0.45706060
       23.18973       33.83362945        0.45445019
       23.28943       34.01302254        0.44898599
       23.38912       34.29687156        0.45542237
       23.48881       34.10333652        0.45640824
       23.58851       33.92600274        0.46099054
       23.68820       33.24168174        0.48047015
       23.78789       34.08308264        0.43325387
       23.88759       32.64683195        0.42994636
       23.98728       33.41267180        0.44394203
       24.08697       33.14259646        0.43351274
       24.18667       33.98005377        0.47083436
       24.28636       32.61468329        0.43744565
       24.38605       32.28219304        0.44463825
       24.48575       32.82081615        0.44770557
       24.58544       32.25106056        0.45724331
       24.68513       32.48212716        0.45901085
       24.78483       32.51391173        0.42322814
       24.88452       32.81742805        0.42420922
       24.98421       32.06913508        0.43367349
       25.08391       31.86938014        0.44128943
       25.18360       32.03530730        0.45200901
       25.28329       32.23813902        0.43710780
       25.38299       32.12870530        0.43503311
       25.48268       32.56769627        0.44063735
       25.58237       32.02035668        0.45453810
       25.68207       32.14576953        0.44627008
       25.78176       32.33077793        0.42070605
       25.88145       31.97000473        0.42946535
       25.98115       33.36029481        0.44354341
       26.08084       31.55000507        0.44183203
       26.18053       32.15982432        0.45836244
       26.28023       32.24549022        0.43435783
       26.37992       31.07733331        0.42659559
       26.47961       31.96039161        0.44690943
       26.57931       32.56259565        0.47080636
       26.67900       31.34545230        0.43215835
       26.77869       32.22247460        0.43513533
       26.87839       32.25350374        0.43065317
       26.97808       32.89086702        0.43216625
       27.07777       32.47601317        0.46261849
       27.17747       31.19844808        0.43276485
       27.27716       32.33316382        0.42953932
       27.37685       32.32441713        0.44627214
       27.47655       32.50576681        0.44057031
       27.57624       31.81357448        0.45529387
       27.67593       31.52000947        0.44379351
       27.77563       32.44929351        0.43118043
       27.87532       30.87852309        0.41347934
       27.97502       32.61029342        0.43360395
       28.07471       31.57957239        0.45211170
       28.17440       32.57352861        0.43929636
       28.27410       32.13726425        0.43538823
       28.37379       32.57196940        0.44889192
       28.47348       32.22109371        0.44353002
       28.57318       32.92471877        0.48576418
       28.67287       32.40025149        0.42958875
       28.77256       32.33622510        0.42126953
       28.87226       32.68366997        0.43397075
       28.97195       33.29843816        0.43974834
       29.07164       32.32312428        0.47151126
       29.17134       32.35202457        0.42973687
       29.27103       32.11270441        0.43503261
       29.37072       33.79321481        0.46481240
       29.47042       33.77129486        0.45796786
       29.57011       32.61329449        0.47615553
       29.66980       33.20004800        0.43812785
       29.76950       33.85608285        0.44225285
       29.86919       33.97152687        0.43415230
       29.96888       33.58040817        0.45134042
       30.06858       34.94892187        0.47555736
       30.16827       34.51642340        0.44705762
       30.26796       34.69214846        0.44870906
       30.36766       35.19684514        0.46122828
       30.46735       35.42049115        0.46669491
       30.56704       37.30665666        0.50415331
       30.66674       36.38968180        0.46472528
       30.76643       37.46344183        0.46048267
       30.86612       38.19172452        0.47460849
       30.96582       39.56927330        0.48673872
       31.06551       40.07528207        0.51375526
       31.16520       43.14375343        0.50148431
       31.26490       47.31639444        0.52143979
       31.36459       55.46875541        0.57354539
       31.46428       70.93276038        0.67811697
       31.56398       93.64597056        0.79174186
       31.66367      113.58928886        0.81836834
       31.76336      162.45335649        0.98883692
       31.86306      245.69550632        1.22352018
       31.96275      354.67014345        1.53316381
       32.06244      427.01458227        1.76380683
       32.16214      500.05707339        1.81641989
       32.26183      473.13599030        1.80170750
       32.36152      389.98240675        1.67046704
       32.46122      291.47159260        1.43872175
       32.56091      213.24130277        1.23593689
       32.66061      140.48572342        0.94103046
       32.76030      104.70974135        0.78981032
       32.85999       92.89859956        0.75371977
       32.95969      102.30190470        0.80047974
       33.05938      135.33787182        0.94310738
       33.15907      186.17584693        1.05366079
       33.25877      289.06615657        1.37898742
       33.35846      448.98707933        1.77879072
       33.45815      654.81768834        2.31439740
       33.55785      831.26995980        2.69066624
       33.65754     1048.94344082        2.91668864
       33.75723     1138.31706132        3.08180174
       33.85693     1026.91533375        2.88914741
       33.95662      868.82539509        2.66685957
       34.05631      709.27741632        2.32985342
       34.15601      565.57103813        1.99095195
       34.25570      464.72704164        1.77557832
       34.35539      364.23779841        1.58227923
       34.45509      274.82497030        1.42896771
       34.55478      198.58051897        1.12795487
       34.65447      125.52492633        0.85039413
       34.75417       85.00785159        0.70605027
       34.85386       66.20664157        0.61335966
       34.95355       55.18164980        0.57679695
       35.05325       50.37042244        0.56935116
       35.15294       46.80038361        0.51746722
       35.25263       45.88433424        0.52125640
       35.35233       43.28782404        0.52068798
       35.45202       41.62736837        0.53315946
       35.55171       40.90689648        0.51516858
       35.65141       38.69390201        0.48361169
       35.75110       38.57666836        0.47865014
       35.85079       37.80449427        0.47159219
       35.95049       36.20697681        0.47296576
       36.05018       35.89940799        0.46328261
       36.14987       34.82638297        0.43841121
       36.24957       34.59540823        0.45613288
       36.34926       34.84310430        0.46665341
       36.44895       33.31302481        0.46441369
       36.54865       33.83767465        0.45014272
       36.64834       32.82787126        0.43379304
       36.74803       32.03462584        0.43446410
       36.84773       32.02298457        0.43189840
       36.94742       32.41894736        0.47073273
       37.04711       31.17123135        0.40633584
       37.14681       30.84598321        0.41309889
       37.24650       31.19723783        0.42601965
       37.34620       31.49482235        0.43941044
       37.44589       30.34389430        0.46135960
       37.54558       30.82033537        0.42398319
       37.64528       30.53454969        0.42233372
       37.74497       30.28815167        0.41363591
       37.84466       30.56481915        0.44006059
       37.94436       30.52409923        0.44855256
       38.04405       30.38592348        0.40479627
       38.14374       30.23382086        0.40726901
       38.24344       30.17189669        0.41308340
       38.34313       29.92591979        0.42925932
       38.44282       30.25536276        0.46708510
       38.54252       30.85236498        0.42272918
       38.64221       33.57694935        0.44085316
       38.74190       34.28730999        0.44995240
       38.84160       38.22614788        0.47671982
       38.94129       43.14018269        0.53195563
       39.04098       50.64454148        0.51875432
       39.14068       57.81751636        0.57649028
       39.24037       61.98981852        0.59715015
       39.34006       61.04286043        0.61502591
       39.43976       58.11467373        0.65330854
       39.53945       52.56749035        0.55581807
       39.63914       42.55684984        0.49736991
       39.73884       36.01115202        0.45868923
       39.83853       32.03987189        0.42917142
       39.93822       30.97407839        0.44707866
       40.03792       29.62154857        0.39893242
       40.13761       29.51901443        0.39939514
       40.23730       30.40557777        0.42030451
       40.33700       30.33006962        0.43258985
       40.43669       30.22707443        0.45145560
       40.53638       31.03294531        0.42520382
       40.63608       31.61208835        0.43716444
       40.73577       31.25920203        0.43229723
       40.83546       31.10044870        0.43502557
       40.93516       31.80383150        0.44848927
       41.03485       30.94369223        0.41719564
       41.13454       30.13038976        0.41227227
       41.23424       31.26701581        0.43015119
       41.33393       30.53088048        0.44408315
       41.43362       30.44651139        0.45767766
       41.53332       30.32242224        0.42655624
       41.63301       30.84709465        0.43850310
       41.73270       30.79839520        0.42852072
       41.83240       31.04859931        0.44332230
       41.93209       30.54097362        0.43675790
       42.03179       31.88894409        0.40741828
       42.13148       32.73679507        0.43381373
       42.23117       36.48319647        0.45852437
       42.33087       41.42685067        0.52331361
       42.43056       51.16250109        0.57093219
       42.53025       63.83483468        0.61868912
       42.62995       90.11538720        0.74375499
       42.72964      131.01472133        0.90861862
       42.82933      179.54861304        1.09239326
       42.92903      222.94991920        1.18363474
       43.02872      259.04713873        1.21765160
       43.12841      248.93365974        1.21406682
       43.22811      210.79555778        1.16463404
       43.32780      163.26970113        1.06865799
       43.42749      121.00322381        0.89451980
       43.52719       81.17348054        0.70013668
       43.62688       55.96338535        0.57639623
       43.72657       42.19182405        0.51119382
       43.82627       37.19303345        0.50166551
       43.92596       33.19542610        0.42813508
       44.02565       31.44508272        0.41339524
       44.12535       30.08815810        0.41877137
       44.22504       30.18372576        0.43674395
       44.32473       29.19039484        0.45305588
       44.42443       29.23740481        0.43544788
       44.52412       28.78564771        0.41939448
       44.62381       28.70268010        0.42524297
       44.72351       29.17700054        0.41468256
       44.82320       28.12044870        0.45530148
       44.92289       28.12060863        0.37889440
       45.02259       27.72223068        0.37935510
       45.12228       27.68214862        0.39237161
       45.22197       27.70865981        0.40220438
       45.32167       27.56139955        0.44396427
       45.42136       26.42163528        0.39601173
       45.52105       26.66891156        0.39420415
       45.62075       25.89550023        0.39321914
       45.72044       26.02273265        0.39298379
       45.82013       25.33247124        0.42332288
       45.91983       24.93088062        0.35819868
       46.01952       26.35101937        0.37801875
       46.11921       26.24139960        0.37793264
       46.21891       25.81720563        0.39367280
       46.31860       25.81584837        0.42545879
       46.41830       26.04769381        0.39474879
       46.51799       25.48842878        0.39109965
       46.61768       25.70360810        0.39074707
       46.71738       25.71144164        0.40157446
       46.81707       25.90996137        0.41849411
       46.91676       25.88139510        0.36600963
       47.01646       25.70224914        0.37445439
       47.11615       25.76665800        0.38266293
       47.21584       26.21286047        0.39781452
       47.31554       25.79546813        0.42856932
       47.41523       25.86889063        0.40212476
       47.51492       25.68776818        0.40243353
       47.61462       25.75778286        0.40123272
       47.71431       25.56173155        0.40437739
       47.81400       25.67778649        0.41653221
       47.91370       25.30504944        0.36330261
       48.01339       25.17163796        0.36149320
       48.11308       24.82452234        0.37108146
       48.21278       24.87317921        0.38652864
       48.31247       25.50159778        0.40371542
       48.41216       24.64715511        0.37123578
       48.51186       24.76469465        0.38485818
       48.61155       24.45368804        0.38053853
       48.71124       24.57178959        0.38921121
       48.81094       24.87433325        0.38924579
       48.91063       24.79949581        0.34726998
       49.01032       25.17127113        0.36038495
       49.11002       25.17463285        0.37404454
       49.20971       24.41173226        0.38785703
       49.30940       24.74432104        0.40342366
       49.40910       25.21035244        0.38753793
       49.50879       23.94853370        0.38494269
       49.60848       25.15299016        0.39848509
       49.70818       24.69961823        0.41018499
       49.80787       24.69786096        0.39790223
       49.90756       24.92670798        0.36255712
       50.00726       24.91964620        0.37088022
       50.10695       25.05635721        0.38099745
       50.20664       25.61697422        0.40386970
       50.30634       25.61339055        0.42279803
       50.40603       26.31005376        0.40169726
       50.50572       26.41764620        0.40267079
       50.60542       25.80016240        0.39830659
       50.70511       26.38318300        0.41380127
       50.80480       26.42373112        0.40621035
       50.90450       26.79919259        0.37076023
       51.00419       27.72320217        0.38217661
       51.10389       28.60859093        0.40127730
       51.20358       29.56819705        0.43474059
       51.30327       32.02916875        0.44996181
       51.40297       37.65952896        0.46754427
       51.50266       45.58187304        0.51835318
       51.60235       58.11965259        0.59811082
       51.70205       75.94064284        0.73021564
       51.80174       95.46118433        0.75804776
       51.90143      121.17192861        0.80290431
       52.00113      140.41876758        0.87021943
       52.10082      148.51097988        0.92707654
       52.20051      147.07362255        1.01272979
       52.30021      136.59243477        0.93540885
       52.39990      119.55320318        0.85511482
       52.49959       98.97324738        0.78949323
       52.59929       80.96231956        0.72469148
       52.69898       66.82883606        0.72099089
       52.79867       53.66053994        0.54407026
       52.89837       41.63223442        0.46056275
       52.99806       34.92734575        0.42777906
       53.09775       29.36976542        0.40320686
       53.19745       28.35730381        0.45298335
       53.29714       26.96870714        0.39020800
       53.39683       26.76953877        0.40490473
       53.49653       26.31234599        0.40479599
       53.59622       25.78892970        0.40074432
       53.69591       26.40424966        0.44581845
       53.79561       25.61107448        0.36722204
       53.89530       25.78894085        0.36344394
       53.99499       25.39195885        0.36687598
       54.09469       26.29363529        0.39166846
       54.19438       25.27424631        0.41827022
       54.29407       24.66296121        0.38165512
       54.39377       25.19178424        0.38882708
       54.49346       24.99373269        0.38805446
       54.59315       25.09519473        0.39495954
       54.69285       25.79483825        0.42680299
       54.79254       24.87437644        0.35886811
       54.89223       24.80602063        0.35513613
       54.99193       24.83768176        0.36642066
       55.09162       24.15627604        0.37746552
       55.19131       25.37545255        0.41688211
       55.29101       25.20131125        0.38664746
       55.39070       25.13709296        0.39793952
       55.49039       24.54081910        0.39063888
       55.59009       24.29781493        0.40064571
       55.68978       25.29790701        0.41869519
       55.78948       25.78435761        0.36883718
       55.88917       27.26898433        0.38022131
       55.98886       29.60244433        0.40021396
       56.08856       32.18380698        0.43169066
       56.18825       34.51428560        0.48338916
       56.28794       37.01557123        0.45733060
       56.38764       39.59810295        0.48856420
       56.48733       41.43559147        0.50593083
       56.58702       41.90819303        0.52293469
       56.68672       41.45697142        0.53701482
       56.78641       41.47812679        0.46394626
       56.88610       41.65039157        0.46966724
       56.98580       40.00320999        0.46046090
       57.08549       40.53388087        0.49195192
       57.18518       40.27067256        0.50808192
       57.28488       38.24020949        0.45994358
       57.38457       34.06871047        0.45936381
       57.48426       32.17437940        0.45575623
       57.58396       30.62110942        0.45702170
       57.68365       28.57520456        0.44716488
       57.78334       27.29706689        0.38219852
       57.88304       25.65884130        0.37474308
       57.98273       24.45614854        0.37111913
       58.08242       24.28507788        0.39828447
       58.18212       24.71146614        0.40986196
       58.28181       24.60369658        0.38368755
       58.38150       25.45460321        0.41123740
       58.48120       26.94318017        0.43380890
       58.58089       28.27522838        0.45049130
       58.68058       30.06458023        0.45466246
       58.78028       34.67514289        0.42631617
       58.87997       44.67590353        0.47580749
       58.97966       57.70827761        0.56081102
       59.07936       70.29035165        0.66115114
       59.17905       80.94350963        0.72130493
       59.27874       88.78421368        0.72037700
       59.37844       92.39296030        0.76024157
       59.47813       93.23116185        0.79557493
       59.57782       86.43254415        0.79845007
       59.67752       76.32368214        0.69641964
       59.77721       61.87376518        0.57405298
       59.87690       47.48072981        0.49722639
       59.97660       38.13601642        0.46641185
       60.07629       32.34370527        0.46561274
       60.17598       29.29214167        0.42458609
       60.27568       26.18545864        0.38946639
       60.37537       25.45112286        0.39077130
       60.47507       24.42409581        0.39774620
       60.57476       24.06711652        0.43335185
       60.67445       23.30719443        0.36486493
       60.77415       23.53063599        0.34811520
       60.87384       23.81180153        0.34565332
       60.97353       23.57356746        0.36325393
       61.07323       23.84445417        0.41183021
       61.17292       23.74949885        0.35523502
       61.27261       23.36344109        0.36398244
       61.37231       23.45227728        0.37723352
       61.47200       23.86209605        0.39599943
       61.57169       22.69634629        0.43902611
       61.67139       22.99009257        0.36089172
       61.77108       23.14748644        0.35484369
       61.87077       23.50817675        0.35507977
       61.97047       23.65953628        0.36922686
       62.07016       22.46565759        0.40721013
       62.16985       22.60049131        0.35777398
       62.26955       22.58488572        0.37122731
       62.36924       22.77132594        0.38527647
       62.46893       22.99687501        0.40198407
       62.56863       22.64533935        0.44871297
       62.66832       23.14767202        0.36834653
       62.76801       23.11770593        0.35864656
       62.86771       23.59190043        0.35383925
       62.96740       23.23983281        0.36072285
       63.06709       23.19581850        0.40154789
       63.16679       22.14829256        0.34605705
       63.26648       22.55146582        0.36074260
       63.36617       22.41794222        0.37528870
       63.46587       22.77968021        0.39174593
       63.56556       23.20677550        0.42125035
       63.66525       23.37126117        0.35756800
       63.76495       22.99543072        0.34427981
       63.86464       23.27062377        0.34421490
       63.96433       22.57860353        0.35436784
       64.06403       23.40972052        0.38522466
       64.16372       23.69386391        0.36029273
       64.26341       23.14237331        0.37335808
       64.36311       23.77104489        0.38621384
       64.46280       23.15049698        0.40235769
       64.56249       23.12321416        0.40831223
       64.66219       23.92130162        0.36286389
       64.76188       23.59062675        0.35495948
       64.86157       23.77944374        0.35451841
       64.96127       24.72369845        0.38041808
       65.06096       25.52965182        0.41986255
       65.16066       24.48904448        0.37289548
       65.26035       24.87175677        0.38345077
       65.36004       25.57465515        0.40464580
       65.45974       25.82731203        0.41961821
       65.55943       26.79467523        0.44659176
       65.65912       26.67201013        0.38579613
       65.75882       28.97460813        0.39853819
       65.85851       31.40445953        0.41549846
       65.95820       35.20086993        0.46378276
       66.05790       37.60967629        0.49586011
       66.15759       42.78044881        0.50286235
       66.25728       47.34385738        0.54486714
       66.35698       51.92046318        0.59310410
       66.45667       58.39197579        0.66791944
       66.55636       64.64748384        0.70050194
       66.65606       78.91241455        0.68944348
       66.75575      104.08880905        0.78282048
       66.85544      144.27513963        0.92192005
       66.95514      196.64362703        1.12993518
       67.05483      258.40257127        1.31741719
       67.15452      341.03925872        1.45988811
       67.25422      435.48363462        1.75554458
       67.35391      513.15610731        2.01971709
       67.45360      578.95350484        2.29915808
       67.55330      627.02249678        2.32885268
       67.65299      670.73752630        2.19025651
       67.75268      680.07109795        2.18150912
       67.85238      661.37385114        2.16589908
       67.95207      620.60691484        2.22464898
       68.05176      562.60728369        1.98330990
       68.15146      480.08149854        1.78185279
       68.25115      400.70707615        1.70395513
       68.35084      350.11550768        1.65743882
       68.45054      310.29226602        1.71469521
       68.55023      273.65398575        1.37786344
       68.64992      224.24473400        1.14636679
       68.74962      171.87372417        1.00210984
       68.84931      122.59728787        0.84941566
       68.94900       95.07324009        0.84079437
       69.04870       67.31728955        0.59165425
       69.14839       50.47855940        0.52939740
       69.24808       41.72190681        0.51808627
       69.34778       37.74578455        0.50764080
       69.44747       33.57324082        0.55260251
       69.54716       29.64168048        0.40432544
       69.64686       28.67663648        0.39130269
       69.74655       26.52658032        0.37814174
       69.84625       26.13678141        0.38415507
       69.94594       26.07546947        0.43306988
       70.04563       25.52347192        0.35557122
       70.14533       25.80266634        0.37314245
       70.24502       26.08351449        0.40068932
       70.34471       26.59464880        0.42770410
       70.44441       27.05994318        0.50675972
       70.54410       27.70356815        0.40095320
       70.64379       27.82365168        0.39930483
       70.74349       29.45481439        0.41704025
       70.84318       30.45670686        0.44419105
       70.94287       30.53177639        0.49094826
       71.04257       30.57960959        0.40553217
       71.14226       29.74703418        0.41426033
       71.24195       29.49845205        0.43321233
       71.34165       26.61998589        0.43418357
       71.44134       27.37426976        0.49019053
       71.54103       25.50815746        0.38491439
       71.64073       24.85154779        0.37265752
       71.74042       24.88839946        0.36889644
       71.84011       24.45611351        0.37918739
       71.93981       24.46456743        0.41247822
       72.03950       23.64523843        0.34186611
       72.13919       24.16452902        0.36012207
       72.23889       23.16555453        0.36633287
       72.33858       23.19609342        0.40846861
       72.43827       24.14732779        0.45822251
       72.53797       23.95285668        0.37175053
       72.63766       24.42900076        0.36844760
       72.73735       23.60090805        0.35304366
       72.83705       24.32265561        0.37757095
       72.93674       24.84748352        0.40497643
       73.03643       25.56304500        0.35518696
       73.13613       26.37353520        0.37889333
       73.23582       28.21257385        0.41329139
       73.33551       29.83183716        0.47102485
       73.43521       30.38230207        0.51629856
       73.53490       31.60001651        0.42461297
       73.63459       32.57276240        0.42405412
       73.73429       32.96082600        0.42330160
       73.83398       35.13378369        0.46287486
       73.93367       35.11460108        0.48642576
       74.03337       35.25897211        0.42944103
       74.13306       37.29044537        0.46539752
       74.23276       36.73591811        0.48290008
       74.33245       35.83968688        0.52416119
       74.43214       36.29436729        0.54492178
       74.53184       36.04253702        0.46087741
       74.63153       36.94299152        0.46308240
       74.73122       33.87607139        0.43987548
       74.83092       30.85853578        0.44355791
       74.93061       28.84984057        0.43408563
       75.03030       27.35890851        0.38110594
       75.13000       25.17084203        0.37787444
       75.22969       23.41217914        0.37966597
       75.32938       22.20999828        0.40497872
       75.42908       21.59998960        0.40441604
       75.52877       21.60104111        0.35075477
       75.62846       20.55253784        0.33976908
       75.72816       21.13313235        0.34473789
       75.82785       20.27836493        0.36578128
       75.92754       20.82804910        0.35056924
       76.02724       20.28436034        0.32271936
       76.12693       20.12827053        0.33439071
       76.22662       21.27679073        0.36283804
       76.32632       20.76965373        0.40474584
       76.42601       20.04258245        0.37201925
       76.52570       19.88690310        0.34076345
       76.62540       20.60923335        0.34659658
       76.72509       19.79917085        0.33677618
       76.82478       20.58122737        0.39628432
       76.92448       19.94661742        0.30999584
       77.02417       19.77578109        0.31922302
       77.12386       20.31575536        0.33924204
       77.22356       19.69074315        0.35422597
       77.32325       19.13172614        0.42689902
       77.42294       19.49530300        0.34498508
       77.52264       20.30593896        0.34558827
       77.62233       19.91885929        0.34054599
       77.72202       19.67870934        0.33768721
       77.82172       18.99084738        0.38749922
       77.92141       19.74749101        0.30297153
       78.02110       19.91279979        0.32753273
       78.12080       19.25852555        0.34160708
       78.22049       19.74536212        0.36791240
       78.32018       19.87176381        0.42988439
       78.41988       19.96286533        0.34057914
       78.51957       19.84671858        0.34985980
       78.61926       19.69269755        0.34611629
       78.71896       20.61164404        0.35482152
       78.81865       19.88556946        0.38826637
       78.91835       19.14482706        0.29370674
       79.01804       19.87981551        0.32957534
       79.11773       20.23902760        0.34847062
       79.21743       20.54563511        0.37533441
       79.31712       20.27569455        0.41982074
       79.41681       21.23087205        0.34648756
       79.51651       21.44238611        0.35439870
       79.61620       22.09841830        0.36013503
       79.71589       24.28006026        0.39120625
       79.81559       24.71991051        0.41714953
       79.91528       27.60423193        0.37479582
       80.01497       30.72393691        0.41224222
       80.11467       32.61563333        0.44259680
       80.21436       34.79783391        0.48803664
       80.31405       35.30148584        0.58364362
       80.41375       35.25745477        0.44631315
       80.51344       35.03182509        0.44275251
       80.61313       35.96939029        0.46079728
       80.71283       36.49457363        0.48242495
       80.81252       35.11293001        0.53307831
       80.91221       34.95842571        0.39685887
       81.01191       32.10810267        0.40742371
       81.11160       29.83471909        0.42286154
       81.21129       27.16510367        0.43550516
       81.31099       25.86932534        0.47320125
       81.41068       23.57842342        0.35163928
       81.51037       22.05996837        0.34879034
       81.61007       21.29201200        0.36189370
       81.70976       21.08835628        0.37327904
       81.80945       21.28822490        0.39889817
       81.90915       20.29467404        0.29663412
       82.00884       20.51698535        0.31922772
       82.10853       20.04716187        0.35155429
       82.20823       19.14973186        0.38000934
       82.30792       19.91790215        0.40529732
       82.40761       19.96250105        0.33159765
       82.50731       20.50876441        0.34008294
       82.60700       20.26838935        0.36204321
       82.70669       19.61604805        0.38779853
       82.80639       20.23060951        0.37538047
       82.90608       20.34137271        0.30504219
       83.00577       19.97050263        0.31968040
       83.10547       20.38218445        0.37928915
       83.20516       20.34908914        0.42460114
       83.30485       19.50020978        0.39709706
       83.40455       20.52985501        0.34008373
       83.50424       20.79260102        0.33222945
       83.60394       20.30370008        0.36143287
       83.70363       22.04674828        0.42348702
       83.80332       21.61230884        0.36687249
       83.90302       22.27625056        0.31137305
       84.00271       22.92358887        0.32880210
       84.10240       23.77966288        0.40547118
       84.20210       23.71793369        0.49188117
       84.30179       24.74200512        0.40868428
       84.40148       23.43390430        0.34923945
       84.50118       25.04410222        0.35468664
       84.60087       24.51093643        0.39542418
       84.70056       23.00479053        0.49808343
       84.80026       24.33670808        0.35803168
       84.89995       23.93325315        0.32046313
       84.99964       23.37329357        0.32961232
       85.09934       22.49561812        0.38098679
       85.19903       22.40440312        0.65105087
       85.29872       21.05570659        0.33196542
       85.39842       20.97999501        0.33679093
       85.49811       20.00878673        0.31947155
       85.59780       19.39465656        0.35229007
       85.69750       19.42116505        0.63412511
       85.79719       19.90285945        0.30661363
       85.89688       19.64277896        0.29747844
       85.99658       19.70651641        0.30501645
       86.09627       19.33980263        0.34625524
       86.19596       19.90939858        0.67802711
       86.29566       18.73375185        0.30950309
       86.39535       19.57380575        0.31977241
       86.49504       18.75537752        0.30801285
       86.59474       19.62676906        0.34068764
       86.69443       19.41479174        0.70989066
       86.79412       19.97635440        0.29975192
       86.89382       20.13652842        0.29313955
       86.99351       20.81157249        0.30946648
       87.09320       20.87558651        0.34371500
       87.19290       20.95131675        0.81692016
       87.29259       21.28639891        0.33153292
       87.39228       21.69052523        0.34281082
       87.49198       22.17810590        0.33966903
       87.59167       22.90758252        0.34944056
       87.69136       22.90954367        1.04532316
       87.79106       23.05183926        0.32517593
       87.89075       22.95732279        0.32189010
       87.99044       22.16344461        0.32731481
       88.09014       22.78667124        0.35252469
       88.18983       23.88756958        1.92152305
       88.28953       22.90932547        0.36007566
       88.38922       22.91672214        0.36361509
       88.48891       22.01875402        0.34028857
       88.58861       20.92881668        0.32017181
       88.68830       20.31078228        2.47110102
       88.78799       20.20461730        0.30347093
       88.88769       19.53171159        0.28991997
       88.98738       19.49850474        0.30237308
       89.08707       19.66700126        0.31430942
       89.18677       26.25727648        2.96345921
       89.28646       19.73982842        0.31904374
       89.38615       19.46975157        0.31797520
       89.48585       19.56214667        0.31270628
       89.58554       18.76128110        0.29872715
       89.68523       19.81063541        2.48152301
       89.78493       19.26817724        0.29242272
       89.88462       20.20310630        0.29688744
       89.98431       20.05857378        0.30530211
       90.08401       20.08999344        0.31429598
       90.18370       19.26092085        2.54693746
       90.28339       19.08546008        0.31239490
       90.38309       19.70024895        0.32234022
       90.48278       18.92093014        0.30877420
       90.58247       19.55571299        0.30889389
       90.68217       19.20306488        2.41637886
       90.78186       19.58638680        0.29985251
       90.88155       20.17133839        0.29674705
       90.98125       20.81158087        0.30985200
       91.08094       20.17068926        0.31476122
       91.18063       23.01209779        2.68188992
       91.28033       20.96951310        0.32983333
       91.38002       20.80279751        0.33556191
       91.47971       21.73980497        0.33481073
       91.57941       22.67471651        0.33563300
       91.67910       22.87315374        2.55384353
       91.77879       24.44403376        0.33389616
       91.87849       25.30208750        0.33273029
       91.97818       29.07367634        0.37063423
       92.07787       33.06708492        0.41035537
       92.17757       38.99421042        3.38813970
       92.27726       39.03069017        0.45970642
       92.37695       44.78634873        0.50896988
       92.47665       55.01714241        0.54312731
       92.57634       71.29688169        0.59686877
       92.67603       85.76077260        4.28982215
       92.77573       95.51746096        0.66865091
       92.87542      124.92811838        0.75299102
       92.97512      151.67613979        0.86802342
       93.07481      172.04634120        1.05789526
       93.17450      179.35016886        2.04015790
       93.27420      195.63203765        1.05650608
       93.37389      212.10438319        1.07344415
       93.47358      227.31055570        1.12041498
       93.57328      244.37933319        1.34892510
       93.67297      251.64470870        1.84822601
       93.77266      261.50616075        1.16920644
       93.87236      270.18898900        1.12979435
       93.97205      274.46765644        1.19987890
       94.07174      274.10005610        1.56869320
       94.17144      269.41069343        1.77540316
       94.27113      256.61360307        1.27845156
       94.37082      238.42440621        1.18995705
       94.47052      222.85443710        1.10156362
       94.57021      216.86945793        1.43180694
       94.66990      211.65273269        1.42584963
       94.76960      206.02437330        1.08741339
       94.86929      203.45855649        0.99252204
       94.96898      189.22189714        0.96889585
       95.06868      174.47303628        1.06451685
       95.16837      166.84217192        1.41887699
       95.26806      156.48718637        1.05913152
       95.36776      146.05475623        0.92523212
       95.46745      134.05090492        0.84916429
       95.56714      124.61706264        0.93703632
       95.66684      121.17107711        1.04475303
       95.76653      115.20695879        0.84560728
       95.86622      102.07870996        0.67582345
       95.96592       86.10873411        0.63788798
       96.06561       72.80501818        0.74938949
       96.16530       66.17296487        0.75732347
       96.26500       57.55547718        0.63363109
       96.36469       47.81301116        0.51401553
       96.46438       42.98630382        0.47368175
       96.56408       39.62898491        0.56759384
       96.66377       37.93246336        0.53919704
       96.76346       35.52837344        0.46465903
       96.86316       33.87080759        0.39133778
       96.96285       32.61760887        0.39606414
       97.06254       32.19171293        0.53022469
       97.16224       31.74466077        0.50382950
       97.26193       31.15083747        0.46669659
       97.36162       32.29441312        0.44479850
       97.46132       32.96592066        0.41752900
       97.56101       31.95059969        0.51898486
       97.66071       30.76250811        0.45555943
       97.76040       30.35603463        0.41131972
       97.86009       29.12774562        0.36306023
       97.95979       28.81853727        0.36699436
       98.05948       28.70678732        0.51223838
       98.15917       28.51541479        0.45590957
       98.25887       28.89010425        0.44098382
       98.35856       27.80468867        0.40656075
       98.45825       27.53267216        0.37611591
       98.55795       27.94179634        0.49441475
       98.65764       27.04467924        0.41672922
       98.75733       25.99462369        0.37979188
       98.85703       25.10749954        0.34787080
       98.95672       24.38588987        0.34404840
       99.05641       24.10373812        0.47694529
       99.15611       24.32093176        0.41096966
       99.25580       23.71117807        0.39131058
       99.35549       23.51995073        0.37029839
       99.45519       23.02748151        0.34110314
       99.55488       23.20090804        0.45702415
       99.65457       23.58988537        0.37959111
       99.75427       22.75005962        0.34901449
       99.85396       23.01951591        0.33825680
       99.95365       23.19429867        0.33281742
      100.05335       21.61691599        0.45525959
      100.15304       22.39568543        0.38924275
      100.25273       22.12949556        0.38238841
      100.35243       21.63177844        0.37523450
      100.45212       21.60236726        0.34202439
      100.55181       21.10205922        0.44490545
      100.65151       21.74172723        0.36935465
      100.75120       21.34948239        0.34073241
      100.85089       20.56862143        0.31886231
      100.95059       20.60761575        0.31003383
      101.05028       20.83885263        0.44477346
      101.14997       21.18809790        0.36954903
      101.24967       20.22441758        0.35568649
      101.34936       19.72186479        0.35272361
      101.44905       19.53048232        0.33289332
      101.54875       19.82820553        0.42153612
      101.64844       20.42402406        0.34812447
      101.74813       20.14477575        0.32422322
      101.84783       19.93720944        0.31261697
      101.94752       19.82080796        0.32835482
      102.04722       19.27719995        0.38909865
      102.14691       19.71179931        0.35421727
      102.24660       19.07975474        0.34558040
      102.34630       19.29677905        0.35018390
      102.44599       19.52324498        0.35737691
      102.54568       19.14748014        0.37044776
      102.64538       19.11742532        0.33002343
      102.74507       19.51481130        0.31671996
      102.84476       19.31407038        0.30863181
      102.94446       18.37181953        0.34132573
      103.04415       19.20667319        0.37283790
      103.14384       19.57091286        0.35270906
      103.24354       19.96141054        0.35130518
      103.34323       19.00076561        0.33927775
      103.44292       18.65981634        0.36378001
      103.54262       18.56693789        0.35221018
      103.64231       19.56364174        0.32830899
      103.74200       18.76548568        0.30610413
      103.84170       19.03287508        0.30227501
      103.94139       18.92974762        0.36611502
      104.04108       18.75784680        0.35295040
      104.14078       19.17135641        0.34565340
      104.24047       19.01777781        0.34336353
      104.34016       18.57988412        0.34080899
      104.43986       18.92066063        0.39169718
      104.53955       18.99170674        0.35381115
      104.63924       19.04192325        0.33221948
      104.73894       18.88568153        0.31796276
      104.83863       19.42306024        0.31303622
      104.93832       18.69527684        0.37183640
      105.03802       19.62201401        0.35762935
      105.13771       19.86596931        0.34623802
      105.23740       19.73632150        0.34377518
      105.33710       18.94367138        0.33749135
      105.43679       19.08167975        0.39433534
      105.53648       19.21040220        0.35596307
      105.63618       20.07552559        0.33477044
      105.73587       20.12711775        0.32066870
      105.83556       20.43868811        0.31420750
      105.93526       20.23161640        0.39539502
      106.03495       20.29684734        0.35865177
      106.13464       19.50304901        0.33925553
      106.23434       19.66572522        0.34266934
      106.33403       19.88142509        0.34828336
      106.43372       20.44629910        0.42249221
      106.53342       20.22444450        0.36604084
      106.63311       20.42549786        0.33448789
      106.73281       20.03953737        0.31463249
      106.83250       20.19107941        0.31037970
      106.93219       19.76100405        0.39732839
      107.03189       19.19833765        0.34700651
      107.13158       18.88974856        0.33336099
      107.23127       19.53482104        0.34535549
      107.33097       19.16417529        0.34219568
      107.43066       19.39630669        0.41478097
      107.53035       18.80792398        0.35101198
      107.63005       18.91115934        0.32027767
      107.72974       18.87337975        0.30655082
      107.82943       18.35724876        0.29803641
      107.92913       18.64836162        0.39709257
      108.02882       19.65986791        0.35751262
      108.12851       18.81942075        0.33430397
      108.22821       19.16166189        0.33258592
      108.32790       19.25053756        0.32907071
      108.42759       19.22121756        0.41693197
      108.52729       19.46923557        0.35581348
      108.62698       19.77858683        0.32422569
      108.72667       19.83635949        0.31122565
      108.82637       20.34481988        0.32295777
      108.92606       20.91642763        0.41690116
      109.02575       21.24753479        0.36762980
      109.12545       21.53980220        0.36049601
      109.22514       22.56758269        0.36810808
      109.32483       22.34039544        0.39826564
      109.42453       22.62700773        0.42256252
      109.52422       23.25325437        0.38648809
      109.62391       23.77996263        0.37135597
      109.72361       23.87097330        0.35626993
      109.82330       24.66742680        0.34079802
      109.92299       25.16053364        0.44765740
      110.02269       25.50971320        0.39305855
      110.12238       25.06034171        0.38668556
      110.22207       25.16240375        0.38414126
      110.32177       25.83836008        0.39687547
      110.42146       26.01585435        0.48264854
      110.52115       25.90022260        0.40972426
      110.62085       26.55132370        0.39264541
      110.72054       26.42958529        0.36780323
      110.82023       26.44614254        0.37867316
      110.91993       25.32609358        0.43042226
      111.01962       25.27448705        0.39727085
      111.11931       25.01165603        0.39702697
      111.21901       24.78828596        0.38732828
      111.31870       24.78979093        0.41950853
      111.41840       24.26696934        0.43206388
      111.51809       24.39029921        0.39518606
      111.61778       23.91709204        0.36843122
      111.71748       23.14640743        0.33587806
      111.81717       23.03725379        0.36267461
      111.91686       22.47272956        0.37645235
      112.01656       21.15082801        0.35648280
      112.11625       21.99616032        0.36585460
      112.21594       21.80355178        0.36349249
      112.31564       22.03393745        0.40504697
      112.41533       22.36642804        0.40073295
      112.51502       21.52357078        0.36131832
      112.61472       22.08136059        0.34875649
      112.71441       21.72677572        0.32575038
      112.81410       21.68458857        0.36379138
      112.91380       20.88667677        0.36321411
      113.01349       21.04667592        0.35766684
      113.11318       21.08723348        0.35827964
      113.21288       21.15041941        0.35824307
      113.31257       21.22150585        0.39654119
      113.41226       20.74700626        0.37180855
      113.51196       19.89086777        0.34222218
      113.61165       19.46470588        0.32669201
      113.71134       20.41544521        0.31870021
      113.81104       19.55929859        0.35737057
      113.91073       19.89744443        0.35142421
      114.01042       19.52563287        0.34516316
      114.11012       19.17179021        0.34142563
      114.20981       19.02871929        0.34159046
      114.30950       19.71821473        0.39407438
      114.40920       19.02157178        0.35724252
      114.50889       18.37201820        0.32860732
      114.60858       18.52643025        0.32002620
      114.70828       18.62863693        0.31007010
      114.80797       18.37181007        0.35093780
      114.90766       19.01399487        0.33606992
      115.00736       18.33922506        0.32778120
      115.10705       19.17292605        0.33627302
      115.20674       18.13019488        0.33203338
      115.30644       18.67723064        0.38608225
      115.40613       18.06311700        0.34430134
      115.50582       18.35635887        0.32840454
      115.60552       19.31207591        0.32621158
      115.70521       18.56593823        0.30785145
      115.80490       18.82792863        0.36074897
      115.90460       19.07097538        0.32844919
      116.00429       19.04743585        0.33210673
      116.10399       18.77436864        0.33181421
      116.20368       18.49921529        0.33665969
      116.30337       18.82215584        0.40567561
      116.40307       18.51266956        0.35168898
      116.50276       18.76252661        0.33540322
      116.60245       19.19046948        0.32612640
      116.70215       18.97409544        0.31244953
      116.80184       18.62871374        0.36724229
      116.90153       19.17894443        0.33545182
      117.00123       19.49244183        0.33520272
      117.10092       18.81794750        0.33795320
      117.20061       19.72671999        0.35135166
      117.30031       20.14394618        0.42693538
      117.40000       19.81048840        0.35464062
      117.49969       20.03312628        0.33852647
      117.59939       19.71616805        0.32043691
      117.69908       20.12730301        0.31344468
      117.79877       20.72132130        0.39004224
      117.89847       21.44830026        0.34461267
      117.99816       21.96566711        0.35386101
      118.09785       23.28129069        0.37324895
      118.19755       23.90726573        0.39517241
      118.29724       24.57793338        0.43675951
      118.39693       25.61575398        0.40681142
      118.49663       27.51492960        0.39669782
      118.59632       30.07943654        0.39937095
      118.69601       32.04196436        0.43093521
      118.79571       34.04576544        0.48072722
      118.89540       37.42167939        0.47142732
      118.99509       41.98953011        0.49989676
      119.09479       48.46162800        0.54187431
      119.19448       54.06780012        0.62400249
      119.29417       60.11228548        0.68495916
      119.39387       68.20344628        0.67258068
      119.49356       77.62211359        0.67606565
      119.59325       88.01270436        0.70184794
      119.69295      100.68980460        0.79605454
      119.79264      109.42615093        0.84185427
      119.89233      123.74731321        0.86986951
      119.99203      135.84573490        0.89184894
      120.09172      146.91494770        0.94815241
      120.19141      159.22218305        1.10998021
      120.29111      167.95819122        1.12812266
      120.39080      175.53646536        1.10326011
      120.49049      184.79959230        1.05778699
      120.59019      194.39301710        1.05599521
      120.68988      205.92233542        1.17377670
      120.78958      212.69644100        1.16628396
      120.88927      219.37053728        1.16617635
      120.98896      226.18672686        1.17321771
      121.08866      235.11948646        1.20326081
      121.18835      237.91007376        1.39131769
      121.28804      245.64727544        1.37998278
      121.38774      248.46482101        1.31706898
      121.48743      252.28287399        1.25735721
      121.58712      254.20980191        1.20366143
      121.68682      250.45686620        1.31490748
      121.78651      249.35570795        1.25169213
      121.88620      247.38148966        1.23084462
      121.98590      238.70652931        1.21457067
      122.08559      228.41321619        1.20890934
      122.18528      222.38267755        1.39118216
      122.28498      218.36233223        1.29361586
      122.38467      209.89277188        1.21134172
      122.48436      197.07978770        1.10715513
      122.58406      184.07478429        1.00992266
      122.68375      173.05253514        1.10657016
      122.78344      160.98783378        0.99979920
      122.88314      151.10436502        0.96004751
      122.98283      141.05269683        0.94583251
      123.08252      134.46880362        0.91915361
      123.18222      122.57374358        1.01955140
      123.28191      114.57567476        0.89182380
      123.38160      108.14550901        0.83544030
      123.48130      101.03845422        0.77619815
      123.58099       92.47723960        0.69240603
      123.68068       85.91192412        0.76030825
      123.78038       81.25618105        0.66702444
      123.88007       73.16182487        0.62040075
      123.97976       66.87743614        0.60199797
      124.07946       60.37803673        0.56469346
      124.17915       56.21068240        0.61297838
      124.27884       51.85944660        0.52665996
      124.37854       47.17678544        0.47203344
      124.47823       44.73624292        0.44965075
      124.57792       40.72893588        0.45679498
